Frame, Time (ms)
    1,     0.000
    2,    30.426
    3,    58.334
    4,    86.909
    5,   117.242
    6,   148.516
    7,   178.726
    8,   210.849
    9,   241.813
   10,   272.846
   11,   303.477
   12,   332.856
   13,   364.759
   14,   395.027
   15,   426.783
   16,   455.045
   17,   486.477
   18,   517.076
   19,   548.219
   20,   579.780
   21,   611.136
   22,   643.514
   23,   674.968
   24,   706.273
   25,   738.058
   26,   770.824
   27,   802.090
   28,   832.627
   29,   864.748
   30,   897.424
   31,   928.449
   32,   959.984
   33,   990.074
   34,  1024.206
   35,  1063.337
   36,  1086.620
   37,  1119.500
   38,  1244.613
   39,  1268.235
   40,  1296.532
   41,  1327.156
   42,  1349.863
   43,  1392.847
   44,  1415.204
   45,  1436.243
   46,  1458.305
   47,  1484.856
   48,  1513.469
   49,  1541.397
   50,  1568.491
   51,  1596.151
   52,  1621.770
   53,  1651.963
   54,  1676.028
   55,  1706.011
   56,  1736.314
   57,  1760.079
   58,  1786.469
   59,  1815.452
   60,  1845.588
   61,  1867.670
   62,  1894.808
   63,  1919.699
   64,  1947.053
   65,  1975.025
   66,  2002.867
   67,  2031.373
   68,  2054.948
   69,  2081.470
   70,  2109.113
   71,  2136.845
   72,  2165.126
   73,  2190.288
   74,  2217.552
   75,  2244.993
   76,  2272.666
   77,  2300.924
   78,  2328.586
   79,  2354.217
   80,  2381.852
   81,  2409.266
   82,  2437.594
   83,  2464.651
   84,  2490.209
   85,  2517.504
   86,  2544.672
   87,  2572.835
   88,  2600.178
   89,  2626.911
   90,  2653.029
   91,  2680.432
   92,  2708.681
   93,  2736.278
   94,  2763.963
   95,  2788.728
   96,  2815.498
   97,  2843.145
   98,  2871.501
   99,  2898.231
  100,  2924.124
  101,  2950.955
  102,  2977.743
  103,  3005.616
  104,  3032.564
  105,  3058.510
  106,  3085.792
  107,  3112.327
  108,  3139.538
  109,  3167.273
  110,  3192.386
  111,  3218.864
  112,  3246.146
  113,  3272.227
  114,  3300.213
  115,  3325.617
  116,  3351.028
  117,  3377.840
  118,  3405.053
  119,  3431.692
  120,  3456.041
  121,  3482.337
  122,  3508.218
  123,  3535.080
  124,  3560.691
  125,  3585.255
  126,  3611.773
  127,  3637.688
  128,  3665.916
  129,  3688.195
  130,  3714.612
  131,  3739.693
  132,  3767.455
  133,  3791.272
  134,  3817.060
  135,  3842.163
  136,  3948.629
  137,  3981.171
  138,  4007.693
  139,  4034.463
  140,  4061.742
  141,  4087.197
  142,  4116.977
  143,  4143.565
  144,  4176.076
  145,  4206.847
  146,  4228.166
  147,  4255.812
  148,  4285.467
  149,  4310.167
  150,  4337.665
  151,  4366.150
  152,  4394.981
  153,  4422.489
  154,  4451.652
  155,  4480.532
  156,  4506.150
  157,  4534.711
  158,  4561.576
  159,  4586.957
  160,  4613.934
  161,  4638.802
  162,  4668.314
  163,  4692.310
  164,  4717.813
  165,  4744.790
  166,  4771.303
  167,  4799.281
  168,  4824.083
  169,  4850.728
  170,  4876.787
  171,  4904.638
  172,  4931.837
  173,  4955.727
  174,  4981.804
  175,  5008.025
  176,  5035.449
  177,  5062.195
  178,  5087.447
  179,  5113.019
  180,  5140.531
  181,  5170.879
  182,  5193.990
  183,  5218.207
  184,  5243.662
  185,  5270.314
  186,  5298.091
  187,  5321.928
  188,  5349.045
  189,  5374.646
  190,  5403.074
  191,  5433.839
  192,  5455.773
  193,  5482.139
  194,  5507.655
  195,  5535.809
  196,  5562.164
  197,  5586.991
  198,  5613.879
  199,  5640.311
  200,  5669.317
  201,  5695.976
  202,  5721.602
  203,  5748.277
  204,  5775.458
  205,  5802.900
  206,  5831.694
  207,  5855.825
  208,  5883.294
  209,  5910.655
  210,  5936.898
  211,  5966.458
  212,  5990.550
  213,  6017.347
  214,  6046.034
  215,  6072.110
  216,  6107.357
  217,  6132.078
  218,  6161.150
  219,  6185.220
  220,  6212.399
  221,  6237.681
  222,  6261.722
  223,  6290.009
  224,  6313.968
  225,  6341.368
  226,  6368.713
  227,  6394.799
  228,  6421.279
  229,  6446.263
  230,  6472.118
  231,  6498.199
  232,  6521.145
  233,  6547.375
  234,  6573.806
  235,  6602.580
  236,  6626.513
  237,  6657.459
  238,  6679.743
  239,  6708.095
  240,  6737.510
  241,  6758.763
  242,  6782.013
  243,  6807.380
  244,  6834.848
  245,  6859.851
  246,  6885.034
  247,  6910.873
  248,  6937.036
  249,  6965.500
  250,  6988.181
  251,  7015.460
  252,  7040.808
  253,  7069.080
  254,  7094.154
  255,  7119.261
  256,  7146.326
  257,  7172.065
  258,  7201.960
  259,  7225.829
  260,  7251.405
  261,  7277.776
  262,  7305.016
  263,  7332.657
  264,  7357.188
  265,  7383.812
  266,  7410.294
  267,  7437.962
  268,  7467.848
  269,  7489.936
  270,  7516.268
  271,  7542.944
  272,  7571.189
  273,  7600.814
  274,  7623.213
  275,  7649.642
  276,  7676.620
  277,  7704.393
  278,  7734.107
  279,  7758.227
  280,  7783.670
  281,  7811.404
  282,  7838.817
  283,  7870.535
  284,  7892.584
  285,  7918.806
  286,  7946.502
  287,  7975.521
  288,  8008.811
  289,  8033.833
  290,  8055.070
  291,  8081.407
  292,  8108.108
  293,  8136.745
  294,  8168.418
  295,  8188.856
  296,  8216.020
  297,  8243.700
  298,  8270.754
  299,  8300.373
  300,  8323.987
  301,  8350.870
  302,  8378.819
  303,  8406.329
  304,  8437.196
  305,  8460.179
  306,  8485.877
  307,  8513.764
  308,  8540.099
  309,  8571.746
  310,  8599.665
  311,  8621.252
  312,  8648.369
  313,  8676.129
  314,  8704.580
  315,  8734.067
  316,  8756.297
  317,  8783.442
  318,  8810.192
  319,  8837.780
  320,  8868.199
  321,  8891.806
  322,  8918.550
  323,  8945.899
  324,  8972.709
  325,  9002.452
  326,  9027.718
  327,  9053.726
  328,  9080.419
  329,  9108.308
  330,  9136.092
  331,  9165.204
  332,  9188.445
  333,  9216.286
  334,  9242.522
  335,  9271.030
  336,  9298.368
  337,  9323.615
  338,  9350.747
  339,  9378.402
  340,  9405.733
  341,  9435.009
  342,  9460.017
  343,  9485.859
  344,  9513.520
  345,  9539.950
  346,  9568.834
  347,  9597.743
  348,  9621.096
  349,  9648.323
  350,  9675.120
  351,  9703.106
  352,  9732.044
  353,  9755.802
  354,  9783.118
  355,  9810.356
  356,  9837.588
  357,  9865.839
  358,  9892.242
  359,  9917.850
  360,  9945.357
  361,  9972.704
  362, 10002.379
  363, 10026.854
  364, 10053.977
  365, 10080.187
  366, 10106.852
  367, 10136.212
  368, 10163.799
  369, 10187.531
  370, 10214.533
  371, 10241.552
  372, 10268.827
  373, 10298.576
  374, 10322.951
  375, 10350.025
  376, 10376.415
  377, 10403.507
  378, 10432.601
  379, 10457.076
  380, 10483.616
  381, 10510.949
  382, 10537.870
  383, 10567.026
  384, 10669.158
  385, 10691.351
  386, 10712.924
  387, 10738.399
  388, 10755.861
  389, 10778.084
  390, 10802.603
  391, 10824.100
  392, 10846.570
  393, 10870.420
  394, 10896.476
  395, 10916.610
  396, 10943.132
  397, 10967.989
  398, 10989.417
  399, 11013.943
  400, 11043.229
  401, 11057.172
  402, 11078.518
  403, 11102.573
  404, 11122.678
  405, 11145.488
  406, 11170.062
  407, 11191.166
  408, 11213.364
  409, 11236.471
  410, 11258.939
  411, 11280.855
  412, 11304.224
  413, 11326.817
  414, 11347.898
  415, 11370.991
  416, 11393.535
  417, 11416.230
  418, 11438.685
  419, 11463.617
  420, 11482.396
  421, 11505.238
  422, 11529.928
  423, 11549.755
  424, 11572.584
  425, 11596.668
  426, 11617.536
  427, 11639.792
  428, 11664.592
  429, 11684.077
  430, 11706.480
  431, 11731.708
  432, 11751.556
  433, 11773.849
  434, 11798.697
  435, 11818.891
  436, 11841.639
  437, 11866.788
  438, 11886.174
  439, 11908.869
  440, 11932.983
  441, 11953.951
  442, 11976.156
  443, 12001.659
  444, 12020.989
  445, 12043.421
  446, 12068.941
  447, 12088.463
  448, 12110.976
  449, 12136.198
  450, 12155.950
  451, 12178.597
  452, 12202.714
  453, 12224.698
  454, 12246.655
  455, 12270.257
  456, 12293.283
  457, 12314.474
  458, 12337.605
  459, 12361.861
  460, 12382.564
  461, 12406.141
  462, 12430.814
  463, 12450.543
  464, 12473.370
  465, 12497.641
  466, 12518.239
  467, 12541.061
  468, 12565.184
  469, 12586.323
  470, 12608.752
  471, 12635.157
  472, 12654.370
  473, 12676.726
  474, 12702.567
  475, 12722.195
  476, 12745.431
  477, 12768.694
  478, 12791.130
  479, 12813.264
  480, 12837.202
  481, 12860.079
  482, 12881.188
  483, 12904.549
  484, 12928.918
  485, 12950.012
  486, 12972.138
  487, 12997.564
  488, 13018.545
  489, 13041.052
  490, 13065.241
  491, 13086.235
  492, 13109.124
  493, 13134.009
  494, 13154.530
  495, 13177.784
  496, 13202.826
  497, 13222.588
  498, 13245.584
  499, 13270.031
  500, 13292.428
  501, 13314.551
  502, 13337.587
  503, 13362.017
  504, 13382.832
  505, 13406.568
  506, 13431.221
  507, 13451.418
  508, 13475.802
  509, 13499.267
  510, 13520.627
  511, 13543.155
  512, 13569.065
  513, 13589.009
  514, 13612.145
  515, 13636.157
  516, 13658.208
  517, 13681.015
  518, 13703.704
  519, 13728.493
  520, 13749.577
  521, 13773.112
  522, 13798.671
  523, 13818.500
  524, 13842.473
  525, 13866.735
  526, 13887.401
  527, 13910.551
  528, 13935.613
  529, 13956.717
  530, 13980.237
  531, 14003.823
  532, 14027.354
  533, 14048.036
  534, 14072.071
  535, 14097.464
  536, 14117.699
  537, 14140.433
  538, 14164.775
  539, 14186.747
  540, 14209.821
  541, 14235.691
  542, 14255.112
  543, 14278.500
  544, 14302.760
  545, 14324.684
  546, 14347.496
  547, 14371.242
  548, 14394.578
  549, 14416.115
  550, 14439.197
  551, 14464.734
  552, 14484.842
  553, 14508.287
  554, 14532.006
  555, 14553.776
  556, 14577.192
  557, 14603.112
  558, 14719.582
  559, 14765.929
  560, 14793.225
  561, 14827.135
  562, 14853.908
  563, 14875.014
  564, 14890.547
  565, 14914.897
  566, 14940.637
  567, 14965.613
  568, 14988.111
  569, 15013.667
  570, 15039.512
  571, 15066.714
  572, 15089.230
  573, 15115.096
  574, 15139.821
  575, 15169.489
  576, 15190.234
  577, 15216.377
  578, 15241.876
  579, 15268.994
  580, 15292.338
  581, 15317.642
  582, 15342.888
  583, 15369.695
  584, 15394.238
  585, 15418.729
  586, 15444.408
  587, 15470.302
  588, 15496.148
  589, 15519.401
  590, 15544.665
  591, 15571.230
  592, 15598.701
  593, 15621.191
  594, 15646.261
  595, 15671.863
  596, 15699.585
  597, 15722.477
  598, 15748.034
  599, 15773.291
  600, 15800.512
  601, 15824.332
  602, 15849.428
  603, 15874.531
  604, 15903.677
  605, 15925.524
  606, 15950.537
  607, 15975.894
  608, 16002.943
  609, 16027.865
  610, 16051.550
  611, 16076.654
  612, 16103.149
  613, 16129.585
  614, 16152.554
  615, 16178.495
  616, 16204.507
  617, 16232.486
  618, 16253.632
  619, 16279.103
  620, 16305.583
  621, 16332.904
  622, 16355.960
  623, 16380.711
  624, 16406.226
  625, 16435.082
  626, 16457.067
  627, 16482.306
  628, 16507.702
  629, 16536.450
  630, 16559.247
  631, 16584.272
  632, 16609.606
  633, 16636.104
  634, 16662.094
  635, 16685.874
  636, 16711.262
  637, 16737.438
  638, 16765.287
  639, 16788.339
  640, 16813.313
  641, 16838.641
  642, 16867.152
  643, 16889.833
  644, 16915.325
  645, 16941.000
  646, 16969.366
  647, 16992.415
  648, 17017.659
  649, 17043.784
  650, 17069.953
  651, 17096.082
  652, 17119.682
  653, 17145.779
  654, 17171.065
  655, 17199.877
  656, 17222.150
  657, 17247.905
  658, 17273.969
  659, 17302.261
  660, 17324.141
  661, 17349.346
  662, 17374.625
  663, 17402.741
  664, 17425.270
  665, 17450.315
  666, 17475.772
  667, 17502.451
  668, 17527.206
  669, 17551.937
  670, 17577.584
  671, 17603.888
  672, 17632.088
  673, 17654.446
  674, 17680.064
  675, 17705.404
  676, 17732.821
  677, 17756.065
  678, 17781.342
  679, 17806.712
  680, 17835.305
  681, 17858.905
  682, 17883.014
  683, 17910.037
  684, 17935.744
  685, 17961.768
  686, 17985.560
  687, 18011.204
  688, 18036.597
  689, 18064.376
  690, 18088.367
  691, 18113.569
  692, 18138.371
  693, 18166.257
  694, 18190.271
  695, 18215.148
  696, 18241.126
  697, 18269.186
  698, 18291.728
  699, 18317.164
  700, 18342.484
  701, 18370.250
  702, 18394.930
  703, 18418.988
  704, 18445.127
  705, 18470.841
  706, 18498.441
  707, 18520.917
  708, 18546.411
  709, 18573.276
  710, 18599.671
  711, 18622.587
  712, 18647.803
  713, 18674.355
  714, 18702.635
  715, 18725.441
  716, 18750.266
  717, 18775.773
  718, 18802.612
  719, 18828.797
  720, 18852.966
  721, 18878.167
  722, 18904.306
  723, 18932.230
  724, 18954.763
  725, 18980.278
  726, 19005.960
  727, 19033.450
  728, 19057.202
  729, 19082.568
  730, 19108.445
  731, 19135.820
  732, 19160.749
  733, 19184.900
  734, 19210.258
  735, 19237.416
  736, 19262.536
  737, 19287.179
  738, 19313.119
  739, 19339.397
  740, 19367.242
  741, 19390.430
  742, 19415.064
  743, 19440.912
  744, 19468.895
  745, 19494.099
  746, 19517.611
  747, 19544.205
  748, 19569.749
  749, 19598.252
  750, 19620.608
  751, 19646.869
  752, 19672.060
  753, 19701.583
  754, 19723.910
  755, 19748.904
  756, 19774.604
  757, 19802.551
  758, 19827.530
  759, 19851.495
  760, 19877.642
  761, 19904.038
  762, 19931.826
  763, 19954.226
  764, 19980.228
  765, 20006.251
  766, 20033.762
  767, 20057.983
  768, 20083.316
  769, 20109.022
  770, 20136.121
  771, 20162.038
  772, 20186.397
  773, 20212.615
  774, 20237.688
  775, 20266.401
  776, 20289.014
  777, 20315.137
  778, 20340.932
  779, 20368.937
  780, 20394.213
  781, 20418.459
  782, 20444.410
  783, 20470.846
  784, 20498.341
  785, 20522.254
  786, 20547.742
  787, 20575.296
  788, 20602.129
  789, 20625.739
  790, 20652.605
  791, 20677.762
  792, 20703.799
  793, 20732.111
  794, 20754.532
  795, 20781.792
  796, 20806.707
  797, 20835.255
  798, 20859.161
  799, 20885.117
  800, 20911.521
  801, 20937.348
  802, 20965.980
  803, 20988.298
  804, 21014.068
  805, 21040.617
  806, 21068.751
  807, 21092.349
  808, 21117.992
  809, 21143.881
  810, 21170.443
  811, 21198.836
  812, 21221.302
  813, 21247.733
  814, 21275.491
  815, 21302.156
  816, 21325.276
  817, 21351.083
  818, 21377.136
  819, 21403.705
  820, 21431.823
  821, 21454.600
  822, 21481.654
  823, 21507.765
  824, 21535.324
  825, 21560.896
  826, 21584.137
  827, 21611.042
  828, 21637.971
  829, 21664.682
  830, 21687.857
  831, 21715.154
  832, 21739.957
  833, 21768.859
  834, 21793.380
  835, 21817.969
  836, 21843.905
  837, 21870.236
  838, 21898.661
  839, 21921.502
  840, 21947.788
  841, 21973.683
  842, 22002.798
  843, 22026.217
  844, 22051.413
  845, 22077.430
  846, 22104.140
  847, 22132.418
  848, 22154.637
  849, 22180.917
  850, 22207.377
  851, 22235.608
  852, 22259.498
  853, 22285.504
  854, 22311.476
  855, 22337.378
  856, 22365.442
  857, 22389.133
  858, 22414.918
  859, 22442.748
  860, 22468.806
  861, 22494.773
  862, 22519.234
  863, 22545.652
  864, 22571.785
  865, 22599.722
  866, 22624.886
  867, 22650.848
  868, 22677.468
  869, 22703.358
  870, 22732.739
  871, 22755.478
  872, 22783.006
  873, 22809.441
  874, 22836.406
  875, 22864.533
  876, 22887.689
  877, 22914.794
  878, 22940.762
  879, 22969.083
  880, 22994.881
  881, 23021.014
  882, 23047.469
  883, 23073.047
  884, 23101.932
  885, 23127.240
  886, 23152.856
  887, 23179.381
  888, 23205.429
  889, 23234.243
  890, 23258.582
  891, 23284.992
  892, 23311.401
  893, 23337.436
  894, 23366.209
  895, 23390.534
  896, 23416.553
  897, 23443.322
  898, 23470.232
  899, 23498.205
  900, 23521.819
  901, 23549.597
  902, 23575.117
  903, 23604.668
  904, 23629.576
  905, 23654.073
  906, 23680.713
  907, 23707.755
  908, 23735.613
  909, 23760.914
  910, 23786.003
  911, 23812.872
  912, 23839.159
  913, 23866.926
  914, 23891.432
  915, 23917.326
  916, 23943.824
  917, 23971.813
  918, 23998.653
  919, 24022.867
  920, 24049.092
  921, 24075.823
  922, 24102.845
  923, 24131.137
  924, 24154.949
  925, 24181.290
  926, 24207.173
  927, 24235.021
  928, 24261.051
  929, 24286.074
  930, 24312.158
  931, 24339.002
  932, 24368.516
  933, 24392.431
  934, 24418.571
  935, 24444.937
  936, 24471.505
  937, 24499.432
  938, 24523.634
  939, 24550.812
  940, 24576.814
  941, 24603.874
  942, 24632.884
  943, 24656.681
  944, 24682.844
  945, 24709.583
  946, 24738.116
  947, 24766.250
  948, 24789.455
  949, 24815.995
  950, 24842.009
  951, 24869.581
  952, 24898.640
  953, 24922.451
  954, 24948.988
  955, 24975.201
  956, 25002.812
  957, 25031.014
  958, 25055.113
  959, 25081.809
  960, 25109.080
  961, 25217.706
  962, 25245.559
  963, 25278.011
  964, 25309.252
  965, 25342.885
  966, 25374.855
  967, 25409.068
  968, 25440.172
  969, 25472.892
  970, 25506.454
  971, 25538.694
  972, 25571.361
  973, 25605.225
  974, 25637.602
  975, 25670.502
  976, 25704.061
  977, 25736.144
  978, 25769.211
  979, 25802.548
  980, 25836.354
  981, 25869.399
  982, 25900.070
  983, 25933.762
  984, 25965.608
  985, 25998.439
  986, 26031.624
  987, 26064.865
  988, 26097.172
  989, 26131.097
  990, 26162.258
  991, 26193.885
  992, 26226.984
  993, 26258.797
  994, 26290.716
  995, 26324.382
  996, 26356.223
  997, 26388.663
  998, 26420.528
  999, 26453.925
 1000, 26486.449
 1001, 26519.596
 1002, 26552.442
 1003, 26584.451
 1004, 26617.701
 1005, 26650.157
 1006, 26683.280
 1007, 26715.627
 1008, 26748.069
 1009, 26781.002
 1010, 26814.854
 1011, 26847.284
 1012, 26879.566
 1013, 26912.633
 1014, 26946.106
 1015, 26978.025
 1016, 27010.694
 1017, 27042.616
 1018, 27075.643
 1019, 27108.950
 1020, 27141.066
 1021, 27172.686
 1022, 27204.441
 1023, 27237.083
 1024, 27268.970
 1025, 27303.034
 1026, 27333.255
 1027, 27365.279
 1028, 27395.453
 1029, 27428.347
 1030, 27457.440
 1031, 27488.018
 1032, 27519.263
 1033, 27551.307
 1034, 27580.509
 1035, 27612.621
 1036, 27642.240
 1037, 27674.456
 1038, 27704.373
 1039, 27736.111
 1040, 27768.453
 1041, 27798.361
 1042, 27828.332
 1043, 27857.235
 1044, 27888.116
 1045, 27918.903
 1046, 27949.813
 1047, 27980.730
 1048, 28010.263
 1049, 28042.429
 1050, 28071.890
 1051, 28103.021
 1052, 28134.535
 1053, 28165.309
 1054, 28195.195
 1055, 28223.686
 1056, 28254.014
 1057, 28285.817
 1058, 28314.356
 1059, 28344.251
 1060, 28374.709
 1061, 28405.747
 1062, 28436.674
 1063, 28468.673
 1064, 28498.824
 1065, 28525.448
 1066, 28554.827
 1067, 28585.114
 1068, 28615.442
 1069, 28644.206
 1070, 28673.805
 1071, 28703.594
 1072, 28735.371
 1073, 28765.178
 1074, 28792.135
 1075, 28821.320
 1076, 28851.417
 1077, 28880.416
 1078, 28908.162
 1079, 28938.367
 1080, 28969.233
 1081, 28997.677
 1082, 29023.428
 1083, 29052.124
 1084, 29080.031
 1085, 29108.758
 1086, 29212.492
 1087, 29262.420
 1088, 29283.987
 1089, 29308.321
 1090, 29329.290
 1091, 29362.878
 1092, 29377.295
 1093, 29400.485
 1094, 29421.996
 1095, 29447.773
 1096, 29473.684
 1097, 29500.783
 1098, 29523.222
 1099, 29548.668
 1100, 29573.591
 1101, 29601.637
 1102, 29623.362
 1103, 29649.020
 1104, 29674.380
 1105, 29700.589
 1106, 29724.970
 1107, 29749.717
 1108, 29775.372
 1109, 29801.613
 1110, 29825.789
 1111, 29850.030
 1112, 29887.727
 1113, 29908.506
 1114, 29925.771
 1115, 29949.579
 1116, 29977.344
 1117, 30001.272
 1118, 30023.712
 1119, 30047.984
 1120, 30073.494
 1121, 30100.475
 1122, 30123.050
 1123, 30148.424
 1124, 30173.730
 1125, 30200.174
 1126, 30223.392
 1127, 30248.566
 1128, 30273.794
 1129, 30300.236
 1130, 30323.471
 1131, 30348.890
 1132, 30373.802
 1133, 30402.452
 1134, 30424.153
 1135, 30449.699
 1136, 30474.897
 1137, 30502.940
 1138, 30525.269
 1139, 30549.867
 1140, 30575.383
 1141, 30603.709
 1142, 30627.160
 1143, 30651.289
 1144, 30676.646
 1145, 30703.667
 1146, 30731.094
 1147, 30753.806
 1148, 30779.225
 1149, 30805.753
 1150, 30833.485
 1151, 30858.723
 1152, 30884.105
 1153, 30911.628
 1154, 30939.059
 1155, 30966.526
 1156, 30993.014
 1157, 31019.559
 1158, 31047.153
 1159, 31075.083
 1160, 31105.493
 1161, 31131.890
 1162, 31159.128
 1163, 31187.108
 1164, 31215.665
 1165, 31244.523
 1166, 31273.859
 1167, 31304.234
 1168, 31332.663
 1169, 31361.198
 1170, 31393.805
 1171, 31419.581
 1172, 31449.792
 1173, 31479.731
 1174, 31509.715
 1175, 31540.491
